Date	NULL
Spectrometer	USB2G14742

wavelength.nm
339.47
339.86
340.24
340.63
341.01
341.39
341.78
342.16
342.55
342.93
343.32
343.7
344.09
344.47
344.85
345.24
345.62
346.01
346.39
346.77
347.16
347.54
347.93
348.31
348.69
349.08
349.46
349.84
350.23
350.61
350.99
351.38
351.76
352.14
352.53
352.91
353.29
353.68
354.06
354.44
354.83
355.21
355.59
355.97
356.36
356.74
357.12
357.51
357.89
358.27
358.65
359.04
359.42
359.8
360.18
360.57
360.95
361.33
361.71
362.1
362.48
362.86
363.24
363.62
364.01
364.39
364.77
365.15
365.53
365.91
366.3
366.68
367.06
367.44
367.82
368.2
368.59
368.97
369.35
369.73
370.11
370.49
370.87
371.25
371.64
372.02
372.4
372.78
373.16
373.54
373.92
374.3
374.68
375.06
375.44
375.82
376.21
376.59
376.97
377.35
377.73
378.11
378.49
378.87
379.25
379.63
380.01
380.39
380.77
381.15
381.53
381.91
382.29
382.67
383.05
383.43
383.81
384.19
384.57
384.95
385.33
385.71
386.08
386.46
386.84
387.22
387.6
387.98
388.36
388.74
389.12
389.5
389.88
390.26
390.63
391.01
391.39
391.77
392.15
392.53
392.91
393.29
393.66
394.04
394.42
394.8
395.18
395.56
395.93
396.31
396.69
397.07
397.45
397.83
398.2
398.58
398.96
399.34
399.72
400.09
400.47
400.85
401.23
401.6
401.98
402.36
402.74
403.11
403.49
403.87
404.25
404.62
405
405.38
405.75
406.13
406.51
406.89
407.26
407.64
408.02
408.39
408.77
409.15
409.52
409.9
410.28
410.65
411.03
411.41
411.78
412.16
412.54
412.91
413.29
413.66
414.04
414.42
414.79
415.17
415.54
415.92
416.3
416.67
417.05
417.42
417.8
418.18
418.55
418.93
419.3
419.68
420.05
420.43
420.8
421.18
421.55
421.93
422.3
422.68
423.06
423.43
423.81
424.18
424.56
424.93
425.3
425.68
426.05
426.43
426.8
427.18
427.55
427.93
428.3
428.68
429.05
429.43
429.8
430.17
430.55
430.92
431.3
431.67
432.04
432.42
432.79
433.17
433.54
433.91
434.29
434.66
435.03
435.41
435.78
436.16
436.53
436.9
437.28
437.65
438.02
438.4
438.77
439.14
439.52
439.89
440.26
440.63
441.01
441.38
441.75
442.13
442.5
442.87
443.24
443.62
443.99
444.36
444.73
445.11
445.48
445.85
446.22
446.6
446.97
447.34
447.71
448.09
448.46
448.83
449.2
449.57
449.95
450.32
450.69
451.06
451.43
451.8
452.18
452.55
452.92
453.29
453.66
454.03
454.4
454.78
455.15
455.52
455.89
456.26
456.63
457
457.37
457.74
458.12
458.49
458.86
459.23
459.6
459.97
460.34
460.71
461.08
461.45
461.82
462.19
462.56
462.93
463.3
463.67
464.04
464.41
464.78
465.15
465.52
465.89
466.26
466.63
467
467.37
467.74
468.11
468.48
468.85
469.22
469.59
469.96
470.33
470.7
471.07
471.44
471.81
472.18
472.55
472.91
473.28
473.65
474.02
474.39
474.76
475.13
475.5
475.87
476.23
476.6
476.97
477.34
477.71
478.08
478.45
478.81
479.18
479.55
479.92
480.29
480.65
481.02
481.39
481.76
482.13
482.49
482.86
483.23
483.6
483.97
484.33
484.7
485.07
485.44
485.8
486.17
486.54
486.91
487.27
487.64
488.01
488.38
488.74
489.11
489.48
489.84
490.21
490.58
490.94
491.31
491.68
492.04
492.41
492.78
493.14
493.51
493.88
494.24
494.61
494.98
495.34
495.71
496.08
496.44
496.81
497.17
497.54
497.91
498.27
498.64
499
499.37
499.74
500.1
500.47
500.83
501.2
501.56
501.93
502.3
502.66
503.03
503.39
503.76
504.12
504.49
504.85
505.22
505.58
505.95
506.31
506.68
507.04
507.41
507.77
508.14
508.5
508.87
509.23
509.59
509.96
510.32
510.69
511.05
511.42
511.78
512.15
512.51
512.87
513.24
513.6
513.97
514.33
514.69
515.06
515.42
515.79
516.15
516.51
516.88
517.24
517.6
517.97
518.33
518.69
519.06
519.42
519.78
520.15
520.51
520.87
521.24
521.6
521.96
522.33
522.69
523.05
523.41
523.78
524.14
524.5
524.86
525.23
525.59
525.95
526.32
526.68
527.04
527.4
527.76
528.13
528.49
528.85
529.21
529.57
529.94
530.3
530.66
531.02
531.38
531.75
532.11
532.47
532.83
533.19
533.55
533.92
534.28
534.64
535
535.36
535.72
536.08
536.44
536.81
537.17
537.53
537.89
538.25
538.61
538.97
539.33
539.69
540.05
540.41
540.78
541.14
541.5
541.86
542.22
542.58
542.94
543.3
543.66
544.02
544.38
544.74
545.1
545.46
545.82
546.18
546.54
546.9
547.26
547.62
547.98
548.34
548.7
549.06
549.42
549.78
550.13
550.49
550.85
551.21
551.57
551.93
552.29
552.65
553.01
553.37
553.73
554.09
554.44
554.8
555.16
555.52
555.88
556.24
556.6
556.95
557.31
557.67
558.03
558.39
558.75
559.1
559.46
559.82
560.18
560.54
560.9
561.25
561.61
561.97
562.33
562.68
563.04
563.4
563.76
564.12
564.47
564.83
565.19
565.55
565.9
566.26
566.62
566.97
567.33
567.69
568.05
568.4
568.76
569.12
569.47
569.83
570.19
570.54
570.9
571.26
571.61
571.97
572.33
572.68
573.04
573.4
573.75
574.11
574.47
574.82
575.18
575.53
575.89
576.25
576.6
576.96
577.31
577.67
578.03
578.38
578.74
579.09
579.45
579.8
580.16
580.51
580.87
581.23
581.58
581.94
582.29
582.65
583
583.36
583.71
584.07
584.42
584.78
585.13
585.49
585.84
586.2
586.55
586.91
587.26
587.61
587.97
588.32
588.68
589.03
589.39
589.74
590.09
590.45
590.8
591.16
591.51
591.86
592.22
592.57
592.93
593.28
593.63
593.99
594.34
594.69
595.05
595.4
595.76
596.11
596.46
596.82
597.17
597.52
597.87
598.23
598.58
598.93
599.29
599.64
599.99
600.35
600.7
601.05
601.4
601.76
602.11
602.46
602.81
603.17
603.52
603.87
604.22
604.58
604.93
605.28
605.63
605.98
606.34
606.69
607.04
607.39
607.74
608.1
608.45
608.8
609.15
609.5
609.85
610.21
610.56
610.91
611.26
611.61
611.96
612.31
612.67
613.02
613.37
613.72
614.07
614.42
614.77
615.12
615.47
615.82
616.17
616.53
616.88
617.23
617.58
617.93
618.28
618.63
618.98
619.33
619.68
620.03
620.38
620.73
621.08
621.43
621.78
622.13
622.48
622.83
623.18
623.53
623.88
624.23
624.58
624.93
625.28
625.63
625.98
626.32
626.67
627.02
627.37
627.72
628.07
628.42
628.77
629.12
629.47
629.82
630.16
630.51
630.86
631.21
631.56
631.91
632.26
632.6
632.95
633.3
633.65
634
634.35
634.69
635.04
635.39
635.74
636.09
636.43
636.78
637.13
637.48
637.83
638.17
638.52
638.87
639.22
639.56
639.91
640.26
640.61
640.95
641.3
641.65
642
642.34
642.69
643.04
643.38
643.73
644.08
644.43
644.77
645.12
645.47
645.81
646.16
646.51
646.85
647.2
647.54
647.89
648.24
648.58
648.93
649.28
649.62
649.97
650.31
650.66
651.01
651.35
651.7
652.04
652.39
652.74
653.08
653.43
653.77
654.12
654.46
654.81
655.15
655.5
655.85
656.19
656.54
656.88
657.23
657.57
657.92
658.26
658.61
658.95
659.3
659.64
659.98
660.33
660.67
661.02
661.36
661.71
662.05
662.4
662.74
663.09
663.43
663.77
664.12
664.46
664.81
665.15
665.49
665.84
666.18
666.53
666.87
667.21
667.56
667.9
668.24
668.59
668.93
669.27
669.62
669.96
670.3
670.65
670.99
671.33
671.68
672.02
672.36
672.71
673.05
673.39
673.73
674.08
674.42
674.76
675.11
675.45
675.79
676.13
676.48
676.82
677.16
677.5
677.84
678.19
678.53
678.87
679.21
679.55
679.9
680.24
680.58
680.92
681.26
681.61
681.95
682.29
682.63
682.97
683.31
683.65
684
684.34
684.68
685.02
685.36
685.7
686.04
686.38
686.73
687.07
687.41
687.75
688.09
688.43
688.77
689.11
689.45
689.79
690.13
690.47
690.81
691.15
691.49
691.83
692.17
692.51
692.85
693.19
693.53
693.87
694.21
694.55
694.89
695.23
695.57
695.91
696.25
696.59
696.93
697.27
697.61
697.95
698.29
698.63
698.97
699.31
699.65
699.99
700.32
700.66
701
701.34
701.68
702.02
702.36
702.7
703.04
703.37
703.71
704.05
704.39
704.73
705.07
705.4
705.74
706.08
706.42
706.76
707.1
707.43
707.77
708.11
708.45
708.78
709.12
709.46
709.8
710.14
710.47
710.81
711.15
711.49
711.82
712.16
712.5
712.83
713.17
713.51
713.85
714.18
714.52
714.86
715.19
715.53
715.87
716.2
716.54
716.88
717.21
717.55
717.89
718.22
718.56
718.9
719.23
719.57
719.91
720.24
720.58
720.91
721.25
721.59
721.92
722.26
722.59
722.93
723.27
723.6
723.94
724.27
724.61
724.94
725.28
725.61
725.95
726.28
726.62
726.96
727.29
727.63
727.96
728.3
728.63
728.97
729.3
729.63
729.97
730.3
730.64
730.97
731.31
731.64
731.98
732.31
732.65
732.98
733.31
733.65
733.98
734.32
734.65
734.98
735.32
735.65
735.99
736.32
736.65
736.99
737.32
737.66
737.99
738.32
738.66
738.99
739.32
739.66
739.99
740.32
740.66
740.99
741.32
741.65
741.99
742.32
742.65
742.99
743.32
743.65
743.98
744.32
744.65
744.98
745.32
745.65
745.98
746.31
746.64
746.98
747.31
747.64
747.97
748.31
748.64
748.97
749.3
749.63
749.96
750.3
750.63
750.96
751.29
751.62
751.95
752.29
752.62
752.95
753.28
753.61
753.94
754.27
754.6
754.94
755.27
755.6
755.93
756.26
756.59
756.92
757.25
757.58
757.91
758.24
758.57
758.9
759.24
759.57
759.9
760.23
760.56
760.89
761.22
761.55
761.88
762.21
762.54
762.87
763.2
763.53
763.86
764.19
764.52
764.85
765.17
765.5
765.83
766.16
766.49
766.82
767.15
767.48
767.81
768.14
768.47
768.8
769.13
769.45
769.78
770.11
770.44
770.77
771.1
771.43
771.75
772.08
772.41
772.74
773.07
773.4
773.73
774.05
774.38
774.71
775.04
775.37
775.69
776.02
776.35
776.68
777
777.33
777.66
777.99
778.32
778.64
778.97
779.3
779.62
779.95
780.28
780.61
780.93
781.26
781.59
781.92
782.24
782.57
782.9
783.22
783.55
783.88
784.2
784.53
784.86
785.18
785.51
785.84
786.16
786.49
786.81
787.14
787.47
787.79
788.12
788.44
788.77
789.1
789.42
789.75
790.07
790.4
790.73
791.05
791.38
791.7
792.03
792.35
792.68
793
793.33
793.65
793.98
794.3
794.63
794.95
795.28
795.6
795.93
796.25
796.58
796.9
797.23
797.55
797.88
798.2
798.53
798.85
799.17
799.5
799.82
800.15
800.47
800.8
801.12
801.44
801.77
802.09
802.42
802.74
803.06
803.39
803.71
804.03
804.36
804.68
805
805.33
805.65
805.97
806.3
806.62
806.94
807.27
807.59
807.91
808.24
808.56
808.88
809.21
809.53
809.85
810.17
810.5
810.82
811.14
811.46
811.79
812.11
812.43
812.75
813.07
813.4
813.72
814.04
814.36
814.69
815.01
815.33
815.65
815.97
816.29
816.62
816.94
817.26
817.58
817.9
818.22
818.54
818.87
819.19
819.51
819.83
820.15
820.47
820.79
821.11
821.43
821.76
822.08
822.4
822.72
823.04
823.36
823.68
824
824.32
824.64
824.96
825.28
825.6
825.92
826.24
826.56
826.88
827.2
827.52
827.84
828.16
828.48
828.8
829.12
829.44
829.76
830.08
830.4
830.72
831.04
831.36
831.68
832
832.31
832.63
832.95
833.27
833.59
833.91
834.23
834.55
834.87
835.19
835.5
835.82
836.14
836.46
836.78
837.1
837.41
837.73
838.05
838.37
838.69
839.01
839.32
839.64
839.96
840.28
840.6
840.91
841.23
841.55
841.87
842.18
842.5
842.82
843.14
843.45
843.77
844.09
844.41
844.72
845.04
845.36
845.67
845.99
846.31
846.63
846.94
847.26
847.58
847.89
848.21
848.53
848.84
849.16
849.48
849.79
850.11
850.42
850.74
851.06
851.37
851.69
852
852.32
852.64
852.95
853.27
853.58
853.9
854.22
854.53
854.85
855.16
855.48
855.79
856.11
856.42
856.74
857.05
857.37
857.68
858
858.31
858.63
858.94
859.26
859.57
859.89
860.2
860.52
860.83
861.15
861.46
861.78
862.09
862.41
862.72
863.03
863.35
863.66
863.98
864.29
864.6
864.92
865.23
865.55
865.86
866.17
866.49
866.8
867.11
867.43
867.74
868.06
868.37
868.68
869
869.31
869.62
869.93
870.25
870.56
870.87
871.19
871.5
871.81
872.13
872.44
872.75
873.06
873.38
873.69
874
874.31
874.63
874.94
875.25
875.56
875.87
876.19
876.5
876.81
877.12
877.43
877.75
878.06
878.37
878.68
878.99
879.3
879.62
879.93
880.24
880.55
880.86
881.17
881.48
881.8
882.11
882.42
882.73
883.04
883.35
883.66
883.97
884.28
884.59
884.9
885.21
885.53
885.84
886.15
886.46
886.77
887.08
887.39
887.7
888.01
888.32
888.63
888.94
889.25
889.56
889.87
890.18
890.49
890.8
891.11
891.42
891.73
892.04
892.34
892.65
892.96
893.27
893.58
893.89
894.2
894.51
894.82
895.13
895.44
895.74
896.05
896.36
896.67
896.98
897.29
897.6
897.91
898.21
898.52
898.83
899.14
899.45
899.76
900.06
900.37
900.68
900.99
901.3
901.6
901.91
902.22
902.53
902.83
903.14
903.45
903.76
904.06
904.37
904.68
904.99
905.29
905.6
905.91
906.22
906.52
906.83
907.14
907.44
907.75
908.06
908.36
908.67
908.98
909.28
909.59
909.9
910.2
910.51
910.82
911.12
911.43
911.73
912.04
912.35
912.65
912.96
913.26
913.57
913.88
914.18
914.49
914.79
915.1
915.4
915.71
916.02
916.32
916.63
916.93
917.24
917.54
917.85
918.15
918.46
918.76
919.07
919.37
919.68
919.98
920.29
920.59
920.9
921.2
921.5
921.81
922.11
922.42
922.72
923.03
923.33
923.63
923.94
924.24
924.55
924.85
925.15
925.46
925.76
926.07
926.37
926.67
926.98
927.28
927.58
927.89
928.19
928.49
928.8
929.1
929.4
929.71
930.01
930.31
930.62
930.92
931.22
931.52
931.83
932.13
932.43
932.73
933.04
933.34
933.64
933.94
934.25
934.55
934.85
935.15
935.45
935.76
936.06
936.36
936.66
936.96
937.27
937.57
937.87
938.17
938.47
938.77
939.08
939.38
939.68
939.98
940.28
940.58
940.88
941.18
941.49
941.79
942.09
942.39
942.69
942.99
943.29
943.59
943.89
944.19
944.49
944.79
945.09
945.39
945.7
946
946.3
946.6
946.9
947.2
947.5
947.8
948.1
948.4
948.7
949
949.3
949.59
949.89
950.19
950.49
950.79
951.09
951.39
951.69
951.99
952.29
952.59
952.89
953.19
953.49
953.78
954.08
954.38
954.68
954.98
955.28
955.58
955.88
956.17
956.47
956.77
957.07
957.37
957.67
957.96
958.26
958.56
958.86
959.16
959.45
959.75
960.05
960.35
960.64
960.94
961.24
961.54
961.83
962.13
962.43
962.73
963.02
963.32
963.62
963.92
964.21
964.51
964.81
965.1
965.4
965.7
965.99
966.29
966.59
966.88
967.18
967.48
967.77
968.07
968.37
968.66
968.96
969.25
969.55
969.85
970.14
970.44
970.73
971.03
971.33
971.62
971.92
972.21
972.51
972.8
973.1
973.4
973.69
973.99
974.28
974.58
974.87
975.17
975.46
975.76
976.05
976.35
976.64
976.94
977.23
977.53
977.82
978.11
978.41
978.7
979
979.29
979.59
979.88
980.18
980.47
980.76
981.06
981.35
981.65
981.94
982.23
982.53
982.82
983.11
983.41
983.7
984
984.29
984.58
984.88
985.17
985.46
985.76
986.05
986.34
986.63
986.93
987.22
987.51
987.81
988.1
988.39
988.68
988.98
989.27
989.56
989.85
990.15
990.44
990.73
991.02
991.32
991.61
991.9
992.19
992.48
992.78
993.07
993.36
993.65
993.94
994.23
994.53
994.82
995.11
995.4
995.69
995.98
996.27
996.57
996.86
997.15
997.44
997.73
998.02
998.31
998.6
998.89
999.18
999.48
999.77
1000.06
1000.35
1000.64
1000.93
1001.22
1001.51
1001.8
1002.09
1002.38
1002.67
1002.96
1003.25
1003.54
1003.83
1004.12
1004.41
1004.7
1004.99
1005.28
1005.57
1005.86
1006.15
1006.44
1006.72
1007.01
1007.3
1007.59
1007.88
1008.17
1008.46
1008.75
1009.04
1009.33
1009.62
1009.9
1010.19
1010.48
1010.77
1011.06
1011.35
1011.64
1011.92
1012.21
1012.5
1012.79
1013.08
1013.37
1013.65
1013.94
1014.23
1014.52
1014.8
1015.09
1015.38
1015.67
1015.96
1016.24
1016.53
1016.82
1017.11
1017.39
1017.68
1017.97
1018.25
1018.54
1018.83
1019.12
1019.4
1019.69
1019.98
1020.26
1020.55
1020.84
1021.12
1021.41
1021.7
1021.98
1022.27
1022.56
1022.84
1023.13
1023.42
1023.7
1023.99
1024.27
1024.56
1024.85
1025.13
1025.42
1025.7
1025.99
1026.27
1026.56
1026.85
1027.13
1027.42
1027.7
1027.99
1028.27
1028.56
1028.84
